ID, S_SFSH, E_SFSH, S_SFSL, E_SFSL,S_PSFSH, E_PSFSH
1, 1596048154.278663617,1596048154.434670673,1596048154.435678369,1596048154.594766661,1596048154.595808316,1596048154.708578116
2, 1596048154.709718284,1596048154.865783878,1596048154.866837901,1596048155.020723710,1596048155.021776591,1596048155.135488249
3, 1596048155.136635855,1596048155.295594816,1596048155.296589910,1596048155.449722258,1596048155.450739639,1596048155.565437716
4, 1596048155.566580353,1596048155.722781806,1596048155.723805709,1596048155.880768476,1596048155.881795043,1596048156.000926364
5, 1596048156.002122730,1596048156.164644446,1596048156.165683450,1596048156.320848370,1596048156.321878776,1596048156.435909142
6, 1596048156.437034377,1596048156.595676253,1596048156.596718327,1596048156.751689543,1596048156.752687715,1596048156.869574617
7, 1596048156.870711841,1596048157.029772481,1596048157.030834065,1596048157.186715594,1596048157.187776278,1596048157.302754003
8, 1596048157.303894018,1596048157.465730957,1596048157.466734799,1596048157.628775193,1596048157.629781650,1596048157.742710753
9, 1596048157.743923458,1596048157.904777399,1596048157.905784988,1596048158.058770960,1596048158.059771855,1596048158.175821478
10, 1596048158.176920574,1596048158.334742415,1596048158.335765833,1596048158.491719481,1596048158.492742329,1596048158.604474599
11, 1596048158.605696628,1596048158.765691706,1596048158.766722437,1596048158.929044510,1596048158.930074923,1596048159.046642594
12, 1596048159.047853675,1596048159.205764212,1596048159.206797653,1596048159.361700407,1596048159.362700112,1596048159.477824730
13, 1596048159.478912059,1596048159.641806791,1596048159.642806954,1596048159.803835700,1596048159.804845535,1596048159.922633701
14, 1596048159.923850490,1596048160.084716359,1596048160.085722579,1596048160.240817129,1596048160.241842395,1596048160.362909480
15, 1596048160.363993464,1596048160.520911465,1596048160.521950123,1596048160.677806875,1596048160.678819418,1596048160.792567150
16, 1596048160.793751644,1596048160.949736884,1596048160.950776227,1596048161.105789909,1596048161.106812055,1596048161.218371769
17, 1596048161.219508210,1596048161.375696867,1596048161.376718447,1596048161.530712497,1596048161.531714879,1596048161.645423188
18, 1596048161.646536455,1596048161.804802842,1596048161.805815538,1596048161.966664344,1596048161.967697182,1596048162.081804224
19, 1596048162.082960149,1596048162.240748903,1596048162.241794479,1596048162.398763293,1596048162.399804277,1596048162.512790658
20, 1596048162.513875129,1596048162.670726647,1596048162.671723637,1596048162.829737135,1596048162.830775732,1596048162.949856385
21, 1596048162.950987968,1596048163.107725655,1596048163.108727522,1596048163.260793758,1596048163.261829206,1596048163.375667947
22, 1596048163.376799886,1596048163.535809691,1596048163.536816527,1596048163.697696087,1596048163.698729154,1596048163.813790078
23, 1596048163.815040342,1596048163.971742592,1596048163.972775372,1596048164.126628338,1596048164.127616184,1596048164.247785452
24, 1596048164.248937523,1596048164.404710406,1596048164.405711988,1596048164.559702538,1596048164.560738461,1596048164.673725815
25, 1596048164.674900797,1596048164.834921389,1596048164.835935669,1596048164.994775993,1596048164.995804365,1596048165.110543830
26, 1596048165.111712640,1596048165.270232163,1596048165.271325893,1596048165.428730598,1596048165.429772128,1596048165.545510748
27, 1596048165.546680902,1596048165.698734353,1596048165.699740066,1596048165.855704125,1596048165.856687376,1596048165.971570577
28, 1596048165.972704488,1596048166.132672842,1596048166.133671960,1596048166.283813648,1596048166.284852029,1596048166.400300088
29, 1596048166.401409099,1596048166.557671182,1596048166.558718687,1596048166.710648340,1596048166.711637978,1596048166.823606552
30, 1596048166.824840090,1596048166.985767583,1596048166.986782276,1596048167.142813860,1596048167.143859737,1596048167.256561640
