ID, S_SFSH, E_SFSH, S_SFSL, E_SFSL,S_PSFSH, E_PSFSH
1, 1596048141.358005011,1596048141.510640887,1596048141.511676199,1596048141.663730836,1596048141.664776425,1596048141.780673713
2, 1596048141.781768832,1596048141.938759262,1596048141.939793505,1596048142.091830517,1596048142.092838745,1596048142.204614259
3, 1596048142.205754335,1596048142.360737995,1596048142.361733181,1596048142.515621999,1596048142.516655425,1596048142.629488345
4, 1596048142.630658386,1596048142.784734249,1596048142.785729698,1596048142.943712488,1596048142.944749412,1596048143.061720195
5, 1596048143.062864733,1596048143.218711474,1596048143.219760287,1596048143.377772884,1596048143.378772466,1596048143.499783966
6, 1596048143.500916886,1596048143.659703944,1596048143.660738492,1596048143.816752652,1596048143.817782770,1596048143.930494719
7, 1596048143.931704115,1596048144.091641594,1596048144.092694091,1596048144.246628416,1596048144.247622928,1596048144.363645554
8, 1596048144.364742622,1596048144.522716946,1596048144.523733625,1596048144.674821961,1596048144.675871550,1596048144.791829625
9, 1596048144.792933119,1596048144.949784844,1596048144.950841499,1596048145.101828534,1596048145.102830685,1596048145.217863481
10, 1596048145.218987432,1596048145.373641165,1596048145.374689689,1596048145.529817279,1596048145.530819956,1596048145.646568376
11, 1596048145.647821345,1596048145.805707606,1596048145.806703599,1596048145.964652290,1596048145.965667563,1596048146.080790950
12, 1596048146.081916265,1596048146.237738679,1596048146.238760273,1596048146.395686489,1596048146.396711136,1596048146.511438036
13, 1596048146.512581058,1596048146.670724295,1596048146.671737353,1596048146.828751999,1596048146.829773214,1596048146.944785643
14, 1596048146.945903981,1596048147.103806069,1596048147.104827493,1596048147.262838273,1596048147.263843339,1596048147.377479034
15, 1596048147.378584925,1596048147.536648536,1596048147.537683390,1596048147.693716485,1596048147.694755085,1596048147.812795793
16, 1596048147.814020229,1596048147.976720644,1596048147.977748835,1596048148.131816765,1596048148.132833287,1596048148.246506233
17, 1596048148.247637213,1596048148.402680194,1596048148.403710067,1596048148.563723529,1596048148.564745504,1596048148.676504685
18, 1596048148.677683173,1596048148.835149754,1596048148.836252095,1596048148.997739232,1596048148.998761852,1596048149.112889932
19, 1596048149.113986396,1596048149.270766122,1596048149.271811939,1596048149.425789143,1596048149.426804334,1596048149.542112594
20, 1596048149.543274867,1596048149.697663299,1596048149.698714545,1596048149.857728710,1596048149.858721203,1596048149.975705883
21, 1596048149.976840740,1596048150.136816586,1596048150.137820544,1596048150.293704604,1596048150.294730371,1596048150.407433525
22, 1596048150.408600125,1596048150.565700770,1596048150.566730452,1596048150.722823357,1596048150.723856237,1596048150.837573113
23, 1596048150.838804592,1596048150.993770279,1596048150.994796803,1596048151.149684539,1596048151.150694774,1596048151.262471583
24, 1596048151.263604245,1596048151.421759716,1596048151.422781988,1596048151.575739069,1596048151.576726373,1596048151.688419140
25, 1596048151.689523718,1596048151.844796798,1596048151.845806171,1596048152.000652299,1596048152.001664174,1596048152.116582118
26, 1596048152.117793392,1596048152.275664507,1596048152.276674329,1596048152.430627868,1596048152.431647348,1596048152.548580962
27, 1596048152.549771172,1596048152.707740472,1596048152.708774556,1596048152.867741325,1596048152.868774967,1596048152.980409560
28, 1596048152.981523292,1596048153.137818848,1596048153.138865044,1596048153.293722981,1596048153.294756412,1596048153.411861819
29, 1596048153.413105002,1596048153.565857433,1596048153.566881461,1596048153.719751227,1596048153.720754657,1596048153.838873579
30, 1596048153.840032729,1596048153.997718544,1596048153.998772708,1596048154.153799992,1596048154.154859342,1596048154.271461135
