ID, S_SFSH, E_SFSH, S_SFSL, E_SFSL,S_PSFSH, E_PSFSH
1, 1596053009.494826615,1596053009.648867799,1596053009.649904950,1596053009.806013006,1596053009.807093264,1596053009.924484023
2, 1596053009.925580315,1596053010.082629460,1596053010.083633737,1596053010.240758120,1596053010.241746369,1596053010.355586712
3, 1596053010.356794782,1596053010.516826564,1596053010.517852958,1596053010.677775367,1596053010.678808274,1596053010.792742026
4, 1596053010.793868160,1596053010.953854047,1596053010.954911739,1596053011.113706926,1596053011.114703988,1596053011.229643501
5, 1596053011.230751230,1596053011.387768292,1596053011.388792719,1596053011.546048790,1596053011.547041332,1596053011.661925891
6, 1596053011.663060545,1596053011.823816034,1596053011.824845379,1596053011.985724738,1596053011.986712902,1596053012.100864502
7, 1596053012.102077610,1596053012.256648270,1596053012.257635813,1596053012.411795810,1596053012.412822074,1596053012.528512635
8, 1596053012.529628351,1596053012.689935672,1596053012.690989083,1596053012.847801627,1596053012.848792740,1596053012.965791173
9, 1596053012.966876580,1596053013.126785451,1596053013.127784736,1596053013.283849383,1596053013.284866901,1596053013.399857625
10, 1596053013.400932349,1596053013.556757661,1596053013.557785011,1596053013.710037173,1596053013.711073504,1596053013.825581911
11, 1596053013.826936852,1596053013.985100303,1596053013.986187677,1596053014.145874662,1596053014.146883919,1596053014.258617213
12, 1596053014.259776949,1596053014.416772280,1596053014.417792058,1596053014.570660947,1596053014.571654880,1596053014.685569494
13, 1596053014.686732113,1596053014.841838034,1596053014.842876781,1596053015.013443090,1596053015.014457385,1596053015.131639562
14, 1596053015.132878210,1596053015.288791159,1596053015.289796245,1596053015.445861970,1596053015.446872420,1596053015.563869829
15, 1596053015.565019186,1596053015.724767599,1596053015.725779474,1596053015.880815916,1596053015.881839583,1596053016.000959288
16, 1596053016.002059545,1596053016.158919269,1596053016.159983996,1596053016.315667692,1596053016.316681959,1596053016.433696592
17, 1596053016.434869948,1596053016.592691392,1596053016.593700412,1596053016.753764005,1596053016.754808358,1596053016.868520027
18, 1596053016.869669334,1596053017.024706537,1596053017.025743032,1596053017.183704927,1596053017.184725712,1596053017.299742405
19, 1596053017.300865999,1596053017.456651558,1596053017.457651190,1596053017.612686125,1596053017.613739038,1596053017.727756835
20, 1596053017.728882285,1596053017.887688081,1596053017.888715721,1596053018.046633995,1596053018.047643242,1596053018.161796052
21, 1596053018.162912537,1596053018.319760258,1596053018.320791713,1596053018.475748842,1596053018.476735305,1596053018.590406755
22, 1596053018.591689445,1596053018.749737347,1596053018.750761240,1596053018.906727122,1596053018.907720856,1596053019.021369174
23, 1596053019.022494338,1596053019.177749166,1596053019.178767022,1596053019.339705729,1596053019.340745201,1596053019.453569889
24, 1596053019.454749445,1596053019.611706639,1596053019.612745792,1596053019.771795453,1596053019.772818378,1596053019.888555222
25, 1596053019.889754658,1596053020.051848615,1596053020.052895020,1596053020.210735487,1596053020.211744540,1596053020.328538571
26, 1596053020.329718731,1596053020.492042310,1596053020.493063856,1596053020.656710669,1596053020.657750594,1596053020.776846794
27, 1596053020.777945796,1596053020.933707124,1596053020.934724040,1596053021.090734465,1596053021.091755358,1596053021.205754908
28, 1596053021.206854673,1596053021.362647618,1596053021.363672164,1596053021.515686983,1596053021.516672263,1596053021.632560409
29, 1596053021.633810181,1596053021.790746608,1596053021.791774930,1596053021.948754414,1596053021.949747002,1596053022.069734494
30, 1596053022.070888118,1596053022.228682834,1596053022.229706018,1596053022.384730871,1596053022.385714023,1596053022.501529570
