ID, S_SFSH, E_SFSH, S_SFSL, E_SFSL,S_PSFSH, E_PSFSH
1, 1596053113.493964671,1596053113.652712801,1596053113.653755526,1596053113.808805132,1596053113.809875370,1596053113.922582576
2, 1596053113.923804762,1596053114.087819702,1596053114.088826269,1596053114.244718856,1596053114.245721482,1596053114.363758363
3, 1596053114.364844670,1596053114.526830369,1596053114.527904480,1596053114.686738937,1596053114.687791571,1596053114.807944551
4, 1596053114.809054941,1596053114.968770483,1596053114.969783997,1596053115.129833470,1596053115.130905880,1596053115.246564611
5, 1596053115.247715729,1596053115.401824148,1596053115.402825273,1596053115.556717936,1596053115.557733899,1596053115.669523927
6, 1596053115.670642968,1596053115.824797619,1596053115.825810920,1596053115.981981275,1596053115.982996044,1596053116.098871401
7, 1596053116.100065933,1596053116.257782746,1596053116.258813443,1596053116.422700296,1596053116.423712118,1596053116.536603818
8, 1596053116.537816903,1596053116.692700053,1596053116.693677449,1596053116.845716125,1596053116.846768478,1596053116.963736975
9, 1596053116.964905838,1596053117.122815114,1596053117.123833007,1596053117.283772021,1596053117.284779379,1596053117.400854348
10, 1596053117.401978369,1596053117.560794528,1596053117.561829431,1596053117.720879436,1596053117.721933130,1596053117.838887436
11, 1596053117.839983952,1596053117.996800922,1596053117.997812831,1596053118.151891914,1596053118.152950527,1596053118.267598700
12, 1596053118.268809000,1596053118.429781066,1596053118.430801380,1596053118.585744286,1596053118.586807677,1596053118.699581767
13, 1596053118.700790182,1596053118.860860297,1596053118.861883842,1596053119.020971893,1596053119.022030374,1596053119.137940796
14, 1596053119.139087249,1596053119.298793781,1596053119.299812507,1596053119.460802836,1596053119.461847106,1596053119.574585024
15, 1596053119.575779440,1596053119.732701067,1596053119.733738340,1596053119.889778046,1596053119.890774369,1596053120.007987688
16, 1596053120.009196531,1596053120.171791791,1596053120.172803023,1596053120.331894252,1596053120.332933690,1596053120.445617722
17, 1596053120.446823966,1596053120.604808585,1596053120.605821615,1596053120.766643241,1596053120.767647399,1596053120.880462597
18, 1596053120.881654239,1596053121.037696001,1596053121.038738498,1596053121.195776690,1596053121.196824178,1596053121.311812246
19, 1596053121.312994567,1596053121.466719193,1596053121.467719644,1596053121.621796121,1596053121.622805909,1596053121.735556580
20, 1596053121.736817073,1596053121.894863610,1596053121.895869285,1596053122.050740450,1596053122.051776360,1596053122.165572439
21, 1596053122.166746431,1596053122.328747986,1596053122.329761986,1596053122.483760440,1596053122.484802495,1596053122.598763474
22, 1596053122.599833841,1596053122.755906716,1596053122.756917676,1596053122.915837902,1596053122.916872900,1596053123.032678666
23, 1596053123.033763777,1596053123.185723021,1596053123.186772789,1596053123.337772678,1596053123.338818959,1596053123.453486867
24, 1596053123.454605641,1596053123.609681898,1596053123.610669876,1596053123.763732015,1596053123.764728637,1596053123.885562283
25, 1596053123.886760966,1596053124.047782515,1596053124.048792111,1596053124.204740557,1596053124.205776209,1596053124.320494625
26, 1596053124.321618992,1596053124.476825346,1596053124.477848681,1596053124.637806137,1596053124.638856464,1596053124.755787663
27, 1596053124.756912460,1596053124.912646845,1596053124.913684831,1596053125.068709423,1596053125.069764200,1596053125.184838010
28, 1596053125.185928951,1596053125.341708711,1596053125.342721033,1596053125.497983827,1596053125.499017920,1596053125.616588733
29, 1596053125.617815838,1596053125.775766548,1596053125.776823954,1596053125.934657391,1596053125.935654694,1596053126.050460766
30, 1596053126.051608323,1596053126.205641425,1596053126.206658214,1596053126.363809035,1596053126.364847021,1596053126.480604671
