ID, S_SFSH, E_SFSH, S_SFSL, E_SFSL,S_PSFSH, E_PSFSH
1, 1596053191.515018205,1596053191.675818118,1596053191.676848820,1596053191.839063941,1596053191.840064052,1596053191.961006003
2, 1596053191.962145101,1596053192.121843447,1596053192.122879276,1596053192.279836178,1596053192.280874807,1596053192.394573893
3, 1596053192.395810401,1596053192.559757682,1596053192.560764370,1596053192.719745580,1596053192.720744691,1596053192.833626896
4, 1596053192.834885798,1596053193.003905668,1596053193.004934470,1596053193.158691691,1596053193.159749618,1596053193.276970944
5, 1596053193.278095466,1596053193.437892709,1596053193.438945599,1596053193.593866642,1596053193.594949764,1596053193.711566021
6, 1596053193.712777201,1596053193.871762865,1596053193.872814823,1596053194.031690695,1596053194.032686200,1596053194.146620946
7, 1596053194.147813863,1596053194.302744694,1596053194.303781589,1596053194.459702298,1596053194.460721046,1596053194.575912213
8, 1596053194.577033840,1596053194.730786080,1596053194.731822263,1596053194.885678131,1596053194.886688059,1596053195.005763497
9, 1596053195.006905373,1596053195.162678874,1596053195.163720164,1596053195.320821082,1596053195.321860281,1596053195.438909576
10, 1596053195.440056382,1596053195.594727258,1596053195.595728686,1596053195.751709744,1596053195.752732327,1596053195.868489504
11, 1596053195.869669943,1596053196.022732135,1596053196.023761140,1596053196.175739238,1596053196.176746107,1596053196.289531928
12, 1596053196.290737663,1596053196.447946725,1596053196.448962145,1596053196.604765838,1596053196.605808454,1596053196.717591752
13, 1596053196.718811102,1596053196.875665571,1596053196.876698317,1596053197.032743738,1596053197.033800017,1596053197.147861102
14, 1596053197.149033881,1596053197.304739627,1596053197.305732166,1596053197.457742195,1596053197.458771764,1596053197.572607824
15, 1596053197.573843031,1596053197.734726964,1596053197.735795327,1596053197.892814230,1596053197.893842103,1596053198.007488525
16, 1596053198.008629490,1596053198.168892370,1596053198.169976801,1596053198.322758525,1596053198.323789393,1596053198.438640602
17, 1596053198.439752811,1596053198.595922019,1596053198.596930582,1596053198.752808655,1596053198.753867547,1596053198.867547270
18, 1596053198.868674753,1596053199.028725290,1596053199.029713183,1596053199.185688178,1596053199.186704978,1596053199.302609657
19, 1596053199.303742580,1596053199.465877780,1596053199.466877339,1596053199.624780890,1596053199.625768373,1596053199.742602546
20, 1596053199.743803551,1596053199.903818946,1596053199.904856907,1596053200.064759847,1596053200.065814216,1596053200.179462568
21, 1596053200.180673030,1596053200.337725341,1596053200.338770478,1596053200.495754234,1596053200.496782378,1596053200.609632111
22, 1596053200.610828933,1596053200.765707491,1596053200.766728078,1596053200.926937042,1596053200.927986505,1596053201.043518086
23, 1596053201.044744005,1596053201.201655859,1596053201.202699787,1596053201.359828080,1596053201.360865249,1596053201.474607530
24, 1596053201.475827524,1596053201.640999344,1596053201.642047376,1596053201.795649025,1596053201.796695761,1596053201.914851127
25, 1596053201.915970824,1596053202.068723964,1596053202.069761161,1596053202.226796409,1596053202.227816013,1596053202.344557619
26, 1596053202.345695871,1596053202.499791983,1596053202.500807245,1596053202.660847412,1596053202.661879013,1596053202.777582427
27, 1596053202.778773188,1596053202.935119466,1596053202.936225544,1596053203.099883889,1596053203.100925182,1596053203.219057537
28, 1596053203.220554827,1596053203.382877815,1596053203.383891127,1596053203.539841718,1596053203.540857662,1596053203.660003807
29, 1596053203.661168063,1596053203.823906526,1596053203.824918785,1596053203.986798080,1596053203.987822564,1596053204.102816329
30, 1596053204.103962012,1596053204.257767693,1596053204.258800203,1596053204.414756831,1596053204.415806481,1596053204.530897480
