ID, S_SFSH, E_SFSH, S_SFSL, E_SFSL,S_PSFSH, E_PSFSH
1, 1596053022.508920832,1596053022.660737361,1596053022.661721158,1596053022.815822478,1596053022.816828405,1596053022.931531066
2, 1596053022.932687421,1596053023.089734268,1596053023.090790406,1596053023.248828360,1596053023.249825914,1596053023.367587562
3, 1596053023.368779838,1596053023.525837243,1596053023.526867772,1596053023.682811170,1596053023.683816163,1596053023.801695843
4, 1596053023.802926899,1596053023.961698938,1596053023.962719531,1596053024.114784823,1596053024.115834714,1596053024.232850864
5, 1596053024.234047667,1596053024.393899686,1596053024.394952604,1596053024.556065289,1596053024.557071314,1596053024.671568789
6, 1596053024.672744825,1596053024.834693557,1596053024.835721943,1596053024.992955594,1596053024.994007114,1596053025.109617183
7, 1596053025.110843103,1596053025.265732307,1596053025.266755888,1596053025.421756687,1596053025.422816642,1596053025.536545991
8, 1596053025.537740394,1596053025.694694795,1596053025.695713970,1596053025.849751075,1596053025.850783925,1596053025.969769718
9, 1596053025.970911263,1596053026.125695797,1596053026.126710206,1596053026.282687511,1596053026.283696471,1596053026.397366072
10, 1596053026.398526629,1596053026.554684865,1596053026.555701964,1596053026.708724423,1596053026.709741546,1596053026.827733872
11, 1596053026.828861317,1596053026.990762247,1596053026.991792382,1596053027.146932016,1596053027.147944385,1596053027.262615192
12, 1596053027.263726650,1596053027.422801316,1596053027.423837819,1596053027.584724731,1596053027.585756634,1596053027.701764741
13, 1596053027.703014525,1596053027.864736889,1596053027.865746149,1596053028.023771820,1596053028.024797327,1596053028.141694257
14, 1596053028.142897457,1596053028.302034472,1596053028.303121151,1596053028.457774434,1596053028.458849662,1596053028.570731928
15, 1596053028.571928267,1596053028.731829118,1596053028.732897794,1596053028.892959020,1596053028.894037692,1596053029.010545296
16, 1596053029.011883887,1596053029.165749264,1596053029.166810568,1596053029.320702106,1596053029.321723114,1596053029.439892570
17, 1596053029.441026390,1596053029.599897154,1596053029.600960906,1596053029.757794450,1596053029.758823074,1596053029.877875896
18, 1596053029.879051715,1596053030.039824781,1596053030.040805725,1596053030.196788357,1596053030.197800993,1596053030.312542522
19, 1596053030.313749585,1596053030.471786086,1596053030.472837013,1596053030.627768700,1596053030.628793707,1596053030.743484794
20, 1596053030.744703153,1596053030.901684256,1596053030.902699630,1596053031.052659937,1596053031.053714315,1596053031.168536279
21, 1596053031.169796643,1596053031.325843003,1596053031.326843556,1596053031.481792817,1596053031.482822811,1596053031.598433020
22, 1596053031.599576820,1596053031.757783643,1596053031.758800783,1596053031.910761187,1596053031.911798666,1596053032.026407520
23, 1596053032.027576136,1596053032.181836888,1596053032.182903935,1596053032.338718472,1596053032.339745651,1596053032.456694053
24, 1596053032.457817335,1596053032.613775982,1596053032.614793465,1596053032.774947501,1596053032.775969637,1596053032.892632722
25, 1596053032.893854173,1596053033.048697970,1596053033.049719823,1596053033.206798138,1596053033.207811013,1596053033.323697314
26, 1596053033.324823070,1596053033.485792011,1596053033.486804589,1596053033.639969592,1596053033.641029437,1596053033.758751929
27, 1596053033.759856241,1596053033.912812800,1596053033.913851366,1596053034.072754047,1596053034.073789165,1596053034.186400441
28, 1596053034.187571168,1596053034.344738022,1596053034.345780081,1596053034.504006370,1596053034.505060879,1596053034.618595699
29, 1596053034.619717437,1596053034.774791361,1596053034.775818640,1596053034.928658983,1596053034.929676748,1596053035.047906356
30, 1596053035.049109978,1596053035.211653964,1596053035.212675105,1596053035.368777603,1596053035.369798516,1596053035.483719937
